# Time (s), Smoothed Ip (A)
6.252500152587890625e+01 1.950029850000000093e+06
6.252519989013671875e+01 1.949391574999999953e+06
6.252539825439453125e+01 1.948822024999999907e+06
6.252560043334960938e+01 1.947279300000000047e+06
6.252579879760742188e+01 1.945519850000000093e+06
6.252600097656250000e+01 1.944263274999999907e+06
6.252619934082031250e+01 1.942633300000000047e+06
6.252640151977539062e+01 1.940437899999999907e+06
6.252659988403320312e+01 1.938026449999999953e+06
6.252679824829101562e+01 1.934116675000000047e+06
6.252700042724609375e+01 1.929964675000000047e+06
6.252719879150390625e+01 1.925304949999999953e+06
6.252740097045898438e+01 1.919894699999999953e+06
6.252759933471679688e+01 1.913774949999999953e+06
6.252780151367187500e+01 1.907705050000000047e+06
6.252799987792968750e+01 1.901005375000000000e+06
6.252819824218750000e+01 1.894473824999999953e+06
6.252840042114257812e+01 1.889207300000000047e+06
6.252859878540039062e+01 1.886044574999999953e+06
6.252880096435546875e+01 1.885103600000000093e+06
6.252899932861328125e+01 1.888272225000000093e+06
6.252920150756835938e+01 1.903522050000000047e+06
6.252939987182617188e+01 1.933154175000000047e+06
6.252959823608398438e+01 1.966050800000000047e+06
6.252980041503906250e+01 1.995628274999999907e+06
6.252999877929687500e+01 2.015586675000000047e+06
6.253020095825195312e+01 2.015863324999999953e+06
6.253039932250976562e+01 1.993651050000000047e+06
6.253060150146484375e+01 1.960079324999999953e+06
6.253079986572265625e+01 1.921532699999999953e+06
6.253099822998046875e+01 1.881225074999999953e+06
6.253120040893554688e+01 1.842296675000000047e+06
6.253139877319335938e+01 1.803875949999999953e+06
6.253160095214843750e+01 1.766152274999999907e+06
6.253179931640625000e+01 1.728258600000000093e+06
6.253200149536132812e+01 1.691478925000000047e+06
6.253219985961914062e+01 1.655436024999999907e+06
6.253239822387695312e+01 1.620262875000000000e+06
6.253260040283203125e+01 1.585923725000000093e+06
6.253279876708984375e+01 1.553005574999999953e+06
6.253300094604492188e+01 1.520982675000000047e+06
6.253319931030273438e+01 1.489290524999999907e+06
6.253340148925781250e+01 1.458183725000000093e+06
6.253359985351562500e+01 1.427649050000000047e+06
6.253379821777343750e+01 1.397456574999999953e+06
6.253400039672851562e+01 1.367333024999999907e+06
6.253419876098632812e+01 1.337081225000000093e+06
6.253440093994140625e+01 1.307667250000000000e+06
6.253459930419921875e+01 1.277558699999999953e+06
6.253480148315429688e+01 1.247319199999999953e+06
6.253499984741210938e+01 1.217109550000000047e+06
6.253519821166992188e+01 1.186749500000000000e+06
6.253540039062500000e+01 1.155272750000000000e+06
6.253559875488281250e+01 1.123580324999999953e+06
6.253580093383789062e+01 1.090996399999999907e+06
6.253599929809570312e+01 1.058584462499999907e+06
6.253620147705078125e+01 1.025761949999999953e+06
6.253639984130859375e+01 9.922865749999999534e+05
6.253659820556640625e+01 9.567838499999999767e+05
6.253680038452148438e+01 9.216730124999999534e+05
6.253699874877929688e+01 8.859609000000000233e+05
6.253720092773437500e+01 8.509778249999999534e+05
6.253739929199218750e+01 8.154623499999999767e+05
6.253760147094726562e+01 7.827184124999999767e+05
6.253779983520507812e+01 7.497625999999999767e+05
6.253799819946289062e+01 7.177502874999999767e+05
6.253820037841796875e+01 6.859273249999999534e+05
6.253839874267578125e+01 6.555019499999999534e+05
6.253860092163085938e+01 6.258263625000000466e+05
6.253879928588867188e+01 5.979697500000000000e+05
6.253900146484375000e+01 5.703882500000000000e+05
6.253919982910156250e+01 5.444567249999999767e+05
6.253939819335937500e+01 5.200322562499999767e+05
6.253960037231445312e+01 4.967898437500000000e+05
6.253979873657226562e+01 4.745664124999999767e+05
6.254000091552734375e+01 4.537588875000000116e+05
6.254019927978515625e+01 4.338779000000000233e+05
6.254040145874023438e+01 4.148959687500000000e+05
6.254059982299804688e+01 3.967377500000000000e+05
6.254079818725585938e+01 3.793858812499999767e+05
6.254100036621093750e+01 3.626813624999999884e+05
6.254119873046875000e+01 3.466713687500000233e+05
6.254140090942382812e+01 3.311900625000000000e+05
6.254159927368164062e+01 3.160504312500000233e+05
6.254180145263671875e+01 3.014144500000000116e+05
6.254199981689453125e+01 2.880742562499999767e+05
6.254219818115234375e+01 2.746675937500000000e+05
6.254240036010742188e+01 2.624309625000000233e+05
6.254259872436523438e+01 2.506747437499999942e+05
6.254280090332031250e+01 2.395889406249999884e+05
6.254299926757812500e+01 2.287209843750000000e+05
6.254320144653320312e+01 2.182827937500000116e+05
6.254339981079101562e+01 2.081418656250000058e+05
6.254359817504882812e+01 1.991272749999999942e+05
6.254380035400390625e+01 1.904332218749999884e+05
6.254399871826171875e+01 1.819190093749999942e+05
6.254420089721679688e+01 1.742029031250000116e+05
6.254439926147460938e+01 1.674690781250000000e+05
6.254460144042968750e+01 1.609885593750000116e+05
6.254479980468750000e+01 1.555178968750000058e+05
6.254499816894531250e+01 1.506605437500000116e+05
6.254520034790039062e+01 1.467804343750000116e+05
6.254539871215820312e+01 1.432082000000000116e+05
6.254560089111328125e+01 1.400931968749999942e+05
6.254579925537109375e+01 1.373811062500000116e+05
6.254600143432617188e+01 1.352436656249999942e+05
6.254619979858398438e+01 1.340673218749999942e+05
6.254639816284179688e+01 1.331515218750000058e+05
6.254660034179687500e+01 1.319325656249999884e+05
6.254679870605468750e+01 1.303844812499999971e+05
6.254700088500976562e+01 1.288451890624999942e+05
6.254719924926757812e+01 1.268574156249999942e+05
6.254740142822265625e+01 1.247234750000000058e+05
6.254759979248046875e+01 1.233082015625000058e+05
6.254779815673828125e+01 1.224151812499999942e+05
6.254800033569335938e+01 1.215651437500000029e+05
6.254819869995117188e+01 1.206244765625000000e+05
6.254840087890625000e+01 1.199735968750000029e+05
6.254859924316406250e+01 1.189830156250000000e+05
6.254880142211914062e+01 1.177297140625000029e+05
6.254899978637695312e+01 1.163872546874999971e+05
6.254919815063476562e+01 1.148384328125000029e+05
6.254940032958984375e+01 1.133964312499999942e+05
6.254959869384765625e+01 1.121152687500000029e+05
6.254980087280273438e+01 1.107650031250000029e+05
6.254999923706054688e+01 1.095329781249999942e+05
6.255020141601562500e+01 1.081486609374999971e+05
6.255039978027343750e+01 1.067595015624999942e+05
6.255059814453125000e+01 1.049803062499999942e+05
6.255080032348632812e+01 1.032705203124999971e+05
6.255099868774414062e+01 1.012884046875000058e+05
6.255120086669921875e+01 9.913838437499999418e+04
6.255139923095703125e+01 9.639072656250000000e+04
6.255160140991210938e+01 9.355941406250000000e+04
6.255179977416992188e+01 9.053092343749999418e+04
6.255199813842773438e+01 8.761609062499999709e+04
6.255220031738281250e+01 8.431168281250000291e+04
6.255239868164062500e+01 8.061424843750000582e+04
6.255260086059570312e+01 7.711609218750000582e+04
6.255279922485351562e+01 7.340987656249999418e+04
6.255300140380859375e+01 6.954136953125000582e+04
6.255319976806640625e+01 6.595500234375000582e+04
6.255339813232421875e+01 6.275154453125000146e+04
6.255360031127929688e+01 5.956563593750000291e+04
6.255379867553710938e+01 5.613472031250000146e+04
6.255400085449218750e+01 5.294085234374999709e+04
6.255419921875000000e+01 4.965597968750000291e+04
6.255440139770507812e+01 4.663652421874999709e+04
6.255459976196289062e+01 4.344785703125000146e+04
6.255479812622070312e+01 4.095915781250000146e+04
6.255500030517578125e+01 3.815146523437499854e+04
6.255519866943359375e+01 3.583435312500000146e+04
6.255540084838867188e+01 3.375683671874999709e+04
6.255559921264648438e+01 3.234185781249999854e+04
6.255580139160156250e+01 3.129621718749999854e+04
6.255599975585937500e+01 3.059273125000000073e+04
6.255619812011718750e+01 3.061586015625000073e+04
6.255640029907226562e+01 3.089363945312500073e+04
6.255659866333007812e+01 2.931322499999999854e+04
6.255680084228515625e+01 2.807668945312500000e+04
6.255699920654296875e+01 2.724470546874999854e+04
6.255720138549804688e+01 2.626928203125000073e+04
6.255739974975585938e+01 2.467990585937500146e+04
6.255759811401367188e+01 2.506716796875000000e+04
6.255780029296875000e+01 2.559081289062499854e+04
6.255799865722656250e+01 2.594013906249999854e+04
6.255820083618164062e+01 2.629760898437500146e+04
6.255839920043945312e+01 2.694359062500000073e+04
6.255860137939453125e+01 2.780489296874999854e+04
6.255879974365234375e+01 2.881799335937499927e+04
6.255899810791015625e+01 3.004587421874999927e+04
6.255920028686523438e+01 3.051744765624999854e+04
6.255939865112304688e+01 3.192149179687500146e+04
6.255960083007812500e+01 3.232696835937500146e+04
6.255979919433593750e+01 3.255180859375000000e+04
6.256000137329101562e+01 3.214914414062500146e+04
6.256019973754882812e+01 3.240756250000000000e+04
6.256039810180664062e+01 3.188634375000000000e+04
6.256060028076171875e+01 3.195810078124999927e+04
6.256079864501953125e+01 3.154060312500000146e+04
6.256100082397460938e+01 3.196045429687499927e+04
6.256119918823242188e+01 3.217224453124999854e+04
6.256140136718750000e+01 3.239256015625000146e+04
6.256159973144531250e+01 3.264392851562500073e+04
6.256179809570312500e+01 3.269190351562499927e+04
6.256200027465820312e+01 3.234486406250000073e+04
6.256219863891601562e+01 3.214299804687500000e+04
6.256240081787109375e+01 3.165432695312500073e+04
6.256259918212890625e+01 3.106412070312500146e+04
6.256280136108398438e+01 3.092534179687500000e+04
6.256299972534179688e+01 3.056694531250000000e+04
6.256320190429687500e+01 2.997885585937499854e+04
6.256340026855468750e+01 2.917710781249999854e+04
6.256359863281250000e+01 2.928699882812500073e+04
6.256380081176757812e+01 2.899377539062500000e+04
6.256399917602539062e+01 2.893506718750000073e+04
6.256420135498046875e+01 2.895788945312500073e+04
6.256439971923828125e+01 2.945932070312499854e+04
6.256460189819335938e+01 2.930157343749999927e+04
6.256480026245117188e+01 2.920541171875000146e+04
6.256499862670898438e+01 2.954308085937500073e+04
6.256520080566406250e+01 2.951575156250000146e+04
6.256539916992187500e+01 2.963234843750000073e+04
6.256560134887695312e+01 2.943751445312500073e+04
6.256579971313476562e+01 2.919883281250000073e+04
6.256600189208984375e+01 2.895918828125000073e+04
6.256620025634765625e+01 2.939554570312500073e+04
6.256639862060546875e+01 2.968455234375000146e+04
6.256660079956054688e+01 3.021554843750000146e+04
6.256679916381835938e+01 2.966268632812500073e+04
6.256700134277343750e+01 2.855431953124999927e+04
6.256719970703125000e+01 2.728456953124999927e+04
6.256740188598632812e+01 2.594287187500000073e+04
6.256760025024414062e+01 2.466651210937499854e+04
6.256779861450195312e+01 2.443825742187500146e+04
6.256800079345703125e+01 2.456831015625000146e+04
6.256819915771484375e+01 2.390314648437500000e+04
6.256840133666992188e+01 2.366313867187500000e+04
6.256859970092773438e+01 2.330576640625000073e+04
6.256880187988281250e+01 2.291752187499999854e+04
6.256900024414062500e+01 2.256089843750000000e+04
6.256919860839843750e+01 2.273612031249999927e+04
6.256940078735351562e+01 2.239890156249999927e+04
6.256959915161132812e+01 2.268836796875000073e+04
6.256980133056640625e+01 2.312072031250000146e+04
6.256999969482421875e+01 2.341529609374999927e+04
