# Time (s), dIp/dt (A/s)
6.252500152587890625e+01 1.051222646154550370e+06
6.252519989013671875e+01 1.311350153846263885e+06
6.252539825439453125e+01 1.342217070846080780e+06
6.252560043334960938e+01 1.573395910993099213e+06
6.252579879760742188e+01 2.053927296150207520e+06
6.252600097656250000e+01 2.131220166479587555e+06
6.252619934082031250e+01 1.892577270091533661e+06
6.252640151977539062e+01 2.721360409725666046e+06
6.252659988403320312e+01 2.910617600000381470e+06
6.252679824829101562e+01 5.709306401934623718e+05
6.252700042724609375e+01 -3.263177421345233917e+06
6.252719879150390625e+01 -4.130424200572490692e+06
6.252740097045898438e+01 -3.876216538154602051e+06
6.252759933471679688e+01 -3.587113865880489349e+06
6.252780151367187500e+01 -2.461882351156711578e+06
6.252799987792968750e+01 -1.253060923076629639e+06
6.252819824218750000e+01 -9.685349794893264771e+05
6.252840042114257812e+01 -2.718852703153133392e+06
6.252859878540039062e+01 -3.296506909370899200e+06
6.252880096435546875e+01 -4.650945182776927948e+06
6.252899932861328125e+01 -5.788310980728149414e+06
6.252920150756835938e+01 -6.917041349666118622e+06
6.252939987182617188e+01 -9.265908184615612030e+06
6.252959823608398438e+01 -1.024711112479400635e+07
6.252980041503906250e+01 -7.643772744134426117e+06
6.252999877929687500e+01 -1.518298882211685181e+06
6.253020095825195312e+01 1.081560752540779114e+07
6.253039932250976562e+01 3.401491815167856216e+07
6.253060150146484375e+01 8.110287983607435226e+07
6.253079986572265625e+01 1.338064896000003815e+08
6.253099822998046875e+01 1.295190587129998207e+08
6.253120040893554688e+01 6.797090510831165314e+07
6.253139877319335938e+01 -6.274837535210609436e+06
6.253160095214843750e+01 -1.017708467905945778e+08
6.253179931640625000e+01 -1.982994794947099686e+08
6.253200149536132812e+01 -2.435371834560294151e+08
6.253219985961914062e+01 -2.370882953846154213e+08
6.253239822387695312e+01 -2.188052667828874588e+08
6.253260040283203125e+01 -2.055635349381990433e+08
6.253279876708984375e+01 -1.949093880469861031e+08
6.253300094604492188e+01 -1.839539029680118561e+08
6.253319931030273438e+01 -1.728356976039142609e+08
6.253340148925781250e+01 -1.620449767505812645e+08
6.253359985351562500e+01 -1.552275298461537361e+08
6.253379821777343750e+01 -1.449152117545206547e+08
6.253400039672851562e+01 -1.363877088446302414e+08
6.253419876098632812e+01 -1.304196462131841183e+08
6.253440093994140625e+01 -1.245597015626347065e+08
6.253459930419921875e+01 -1.201419604314217567e+08
6.253480148315429688e+01 -1.181157103414580822e+08
6.253499984741210938e+01 -1.175168236307692528e+08
6.253519821166992188e+01 -1.158861270662076473e+08
6.253540039062500000e+01 -1.172800069689183235e+08
6.253559875488281250e+01 -1.182117369326202869e+08
6.253580093383789062e+01 -1.183256882527663708e+08
6.253599929809570312e+01 -1.174239493997926712e+08
6.253620147705078125e+01 -1.172486727076318264e+08
6.253639984130859375e+01 -1.168352334769229889e+08
6.253659820556640625e+01 -1.156226722273108959e+08
6.253680038452148438e+01 -1.150474605947833061e+08
6.253699874877929688e+01 -1.106298878669484854e+08
6.253720092773437500e+01 -1.063162141239451170e+08
6.253739929199218750e+01 -1.066735967114024162e+08
6.253760147094726562e+01 -1.044198733859810829e+08
6.253779983520507812e+01 -9.898582646153843403e+07
6.253799819946289062e+01 -9.707558489774274826e+07
6.253820037841796875e+01 -9.376131114887821674e+07
6.253839874267578125e+01 -8.579001378607511520e+07
6.253860092163085938e+01 -7.780667017757689953e+07
6.253879928588867188e+01 -7.232691610548353195e+07
6.253900146484375000e+01 -6.706982403573989868e+07
6.253919982910156250e+01 -6.253907495384609699e+07
6.253939819335937500e+01 -5.840746263443219662e+07
6.253960037231445312e+01 -5.453560670710635185e+07
6.253979873657226562e+01 -5.218704553923565149e+07
6.254000091552734375e+01 -4.945436087989485264e+07
6.254019927978515625e+01 -4.669938112269818783e+07
6.254040145874023438e+01 -4.438969998570179939e+07
6.254059982299804688e+01 -4.285172972307693958e+07
6.254079818725585938e+01 -4.026008646135050058e+07
6.254100036621093750e+01 -3.685514467673510313e+07
6.254119873046875000e+01 -3.584190747795695066e+07
6.254140090942382812e+01 -3.305547564674824476e+07
6.254159927368164062e+01 -2.939615061156404018e+07
6.254180145263671875e+01 -2.765477087002557516e+07
6.254199981689453125e+01 -2.741874609230774641e+07
6.254219818115234375e+01 -2.460795002718627453e+07
6.254240036010742188e+01 -2.164368495465892553e+07
6.254259872436523438e+01 -2.008973512709379196e+07
6.254280090332031250e+01 -1.756459216211205721e+07
6.254299926757812500e+01 -1.452548911434924603e+07
6.254320144653320312e+01 -1.276955732006359100e+07
6.254339981079101562e+01 -1.160655556923079491e+07
6.254359817504882812e+01 -1.142646449814638495e+07
6.254380035400390625e+01 -1.218677347045406699e+07
6.254399871826171875e+01 -1.137511894279909134e+07
6.254420089721679688e+01 -1.059206344213974476e+07
6.254439926147460938e+01 -1.044956356533831358e+07
6.254460144042968750e+01 -8.522287313909769058e+06
6.254479980468750000e+01 -7.451549538461565971e+06
6.254499816894531250e+01 -6.568303973327755928e+06
6.254520034790039062e+01 -5.055395435891926289e+06
6.254539871215820312e+01 -5.567674685200065374e+06
6.254560089111328125e+01 -6.478494028203755617e+06
6.254579925537109375e+01 -5.628409084160655737e+06
6.254600143432617188e+01 -6.134717144526928663e+06
6.254619979858398438e+01 -7.523335876923084259e+06
6.254639816284179688e+01 -5.680760570002079010e+06
6.254660034179687500e+01 -6.243428014983743429e+06
6.254679870605468750e+01 -1.089149521210864186e+07
6.254700088500976562e+01 -1.569242813987419009e+07
6.254719924926757812e+01 -1.719596411974841356e+07
6.254740142822265625e+01 -1.911825450392425060e+07
6.254759979248046875e+01 -2.013839556923076510e+07
6.254779815673828125e+01 -1.800552588765498996e+07
6.254800033569335938e+01 -1.535417766084176302e+07
6.254819869995117188e+01 -1.489240794296219945e+07
6.254840087890625000e+01 -1.501512627849334478e+07
6.254859924316406250e+01 -1.427978335896053910e+07
6.254880142211914062e+01 -1.232799723617666960e+07
6.254899978637695312e+01 -1.093431335384614766e+07
6.254919815063476562e+01 -9.879708900805845857e+06
6.254940032958984375e+01 -8.543983533479854465e+06
6.254959869384765625e+01 -6.955746395366668701e+06
6.254980087280273438e+01 -5.670742486209154129e+06
6.254999923706054688e+01 -3.785510681141734123e+06
6.255020141601562500e+01 -2.222894558064818382e+06
6.255039978027343750e+01 -2.388552861538469791e+06
6.255059814453125000e+01 -2.054143626323863864e+06
6.255080032348632812e+01 -1.174957106177330017e+06
6.255099868774414062e+01 -2.063809273365125060e+06
6.255120086669921875e+01 -2.202777401130706072e+06
6.255139923095703125e+01 -1.092362841561958194e+06
6.255160140991210938e+01 -8.974448541626930237e+05
6.255179977416992188e+01 -6.734168615384697914e+05
6.255199813842773438e+01 7.951128964821994305e+04
6.255220031738281250e+01 -9.906331510843783617e+05
6.255239868164062500e+01 -1.524107305118530989e+06
6.255260086059570312e+01 -8.786203905397802591e+05
6.255279922485351562e+01 -2.603355164591893554e+06
6.255300140380859375e+01 -3.618025868181630969e+06
6.255319976806640625e+01 -3.704017723076924682e+06
6.255339813232421875e+01 -4.190167488340586424e+06
6.255360031127929688e+01 -5.231188937717884779e+06
6.255379867553710938e+01 -3.600941854591198266e+06
6.255400085449218750e+01 -2.198489759060055017e+06
6.255419921875000000e+01 -2.903182306912705302e+06
6.255440139770507812e+01 -3.869422705447509885e+06
6.255459976196289062e+01 -3.807001600000001490e+06
6.255479812622070312e+01 -4.151390908784300089e+06
6.255500030517578125e+01 -4.690153823949128389e+06
6.255519866943359375e+01 -3.889841646554701030e+06
6.255540084838867188e+01 -2.470945930217713118e+06
6.255559921264648438e+01 -1.589553267216809094e+06
6.255580139160156250e+01 -1.636548246850505471e+06
6.255599975585937500e+01 -9.197538461538478732e+05
6.255619812011718750e+01 1.431370407552696764e+06
6.255640029907226562e+01 3.720039533413507044e+06
6.255659866333007812e+01 9.835095145096406341e+05
6.255680084228515625e+01 -2.614387121973879635e+06
6.255699920654296875e+01 -1.906768565424010158e+06
6.255720138549804688e+01 -1.661494909160271287e+06
6.255739974975585938e+01 -4.002114953846149147e+06
6.255759811401367188e+01 -2.025672001658722758e+06
6.255780029296875000e+01 2.997027649623334408e+06
6.255799865722656250e+01 8.848703786799386144e+05
6.255820083618164062e+01 -3.381431773640289903e+05
6.255839920043945312e+01 5.835103319261819124e+05
6.255860137939453125e+01 -1.455276308576911688e+05
6.255879974365234375e+01 -1.308374646153844893e+06
6.255899810791015625e+01 -1.315520761683605611e+06
6.255920028686523438e+01 -5.962935065920352936e+05
6.255939865112304688e+01 -7.095868793144002557e+05
6.255960083007812500e+01 -2.178209317686036229e+05
6.255979919433593750e+01 -7.613839791001453996e+05
6.256000137329101562e+01 7.265524803870320320e+05
6.256019973754882812e+01 -5.770308923076987267e+05
6.256039810180664062e+01 -2.553244020402245224e+06
6.256060028076171875e+01 -9.623925414278879762e+05
6.256079864501953125e+01 -4.948712740783691406e+05
6.256100082397460938e+01 -1.552737917301811278e+06
6.256119918823242188e+01 -2.393407581560574472e+06
6.256140136718750000e+01 -1.135429339216254652e+06
6.256159973144531250e+01 -1.244072369230762124e+06
6.256179809570312500e+01 -1.669707691356696188e+06
6.256200027465820312e+01 -6.956097807339876890e+05
6.256219863891601562e+01 6.229197787269279361e+05
6.256240081787109375e+01 3.827403349174112082e+05
6.256259918212890625e+01 -7.019161624770164490e+05
6.256280136108398438e+01 6.830873856548443437e+05
6.256299972534179688e+01 8.653277074019610882e+04
6.256320190429687500e+01 -2.499953769520968199e+05
6.256340026855468750e+01 1.593100799999997020e+06
6.256359863281250000e+01 1.779435690914370120e+06
6.256380081176757812e+01 1.000642430841110647e+06
6.256399917602539062e+01 5.814433646775782108e+05
6.256420135498046875e+01 3.073409388900399208e+05
6.256439971923828125e+01 -1.071499994083903730e+06
6.256460189819335938e+01 -2.040714132780507207e+05
6.256480026245117188e+01 -7.930146461538448930e+05
6.256499862670898438e+01 -1.116813393423177302e+06
6.256520080566406250e+01 3.090954382251724601e+05
6.256539916992187500e+01 -2.363710473980009556e+04
6.256560134887695312e+01 3.161891106448248029e+05
6.256579971313476562e+01 1.292736858641244471e+06
6.256600189208984375e+01 1.522237839154057205e+06
6.256620025634765625e+01 1.594647630769230425e+06
6.256639862060546875e+01 3.657896362330503762e+06
6.256660079956054688e+01 3.581281395004495978e+06
6.256679916381835938e+01 8.438586468283832073e+05
6.256700134277343750e+01 -2.094823042255856097e+06
6.256719970703125000e+01 -3.426716749353796244e+06
6.256740188598632812e+01 -3.124244778657816350e+06
6.256760025024414062e+01 -3.326763323076918721e+06
6.256779861450195312e+01 -1.689360286759279668e+06
6.256800079345703125e+01 8.688339286253377795e+05
6.256819915771484375e+01 5.441770931176990271e+05
6.256840133666992188e+01 -9.661331474683731794e+05
6.256859970092773438e+01 -1.435757543371342123e+06
6.256880187988281250e+01 -8.257979149464443326e+05
6.256900024414062500e+01 -3.132524307692274451e+05
6.256919860839843750e+01 1.907676330914348364e+04
6.256940078735351562e+01 2.582075448476076126e+05
6.256959915161132812e+01 4.996884208943247795e+05
6.256980133056640625e+01 4.141464053631946445e+05
6.256999969482421875e+01 2.035298461538461561e+05
