# Time (s), Smoothed Ip (A)
6.252500152587890625e+01 1.691181925000000047e+06
6.252519989013671875e+01 1.691781274999999907e+06
6.252539825439453125e+01 1.691958425000000047e+06
6.252560043334960938e+01 1.692524399999999907e+06
6.252579879760742188e+01 1.692369350000000093e+06
6.252600097656250000e+01 1.692268524999999907e+06
6.252619934082031250e+01 1.691716324999999953e+06
6.252640151977539062e+01 1.691614524999999907e+06
6.252659988403320312e+01 1.690779449999999953e+06
6.252679824829101562e+01 1.690273074999999953e+06
6.252700042724609375e+01 1.689241824999999953e+06
6.252719879150390625e+01 1.687852100000000093e+06
6.252740097045898438e+01 1.685912875000000000e+06
6.252759933471679688e+01 1.683609750000000000e+06
6.252780151367187500e+01 1.680587500000000000e+06
6.252799987792968750e+01 1.677488850000000093e+06
6.252819824218750000e+01 1.674922375000000000e+06
6.252840042114257812e+01 1.674558350000000093e+06
6.252859878540039062e+01 1.678943875000000000e+06
6.252880096435546875e+01 1.693379399999999907e+06
6.252899932861328125e+01 1.729632824999999953e+06
6.252920150756835938e+01 1.776965350000000093e+06
6.252939987182617188e+01 1.822340675000000047e+06
6.252959823608398438e+01 1.846621649999999907e+06
6.252980041503906250e+01 1.850401625000000000e+06
6.252999877929687500e+01 1.820278274999999907e+06
6.253020095825195312e+01 1.768297875000000000e+06
6.253039932250976562e+01 1.706334774999999907e+06
6.253060150146484375e+01 1.651470574999999953e+06
6.253079986572265625e+01 1.599407800000000047e+06
6.253099822998046875e+01 1.551170350000000093e+06
6.253120040893554688e+01 1.505514449999999953e+06
6.253139877319335938e+01 1.462431350000000093e+06
6.253160095214843750e+01 1.421764050000000047e+06
6.253179931640625000e+01 1.382811475000000093e+06
6.253200149536132812e+01 1.344864824999999953e+06
6.253219985961914062e+01 1.306809574999999953e+06
6.253239822387695312e+01 1.269559699999999953e+06
6.253260040283203125e+01 1.233128550000000047e+06
6.253279876708984375e+01 1.197005225000000093e+06
6.253300094604492188e+01 1.161924675000000047e+06
6.253319931030273438e+01 1.129058050000000047e+06
6.253340148925781250e+01 1.096640324999999953e+06
6.253359985351562500e+01 1.064598324999999953e+06
6.253379821777343750e+01 1.033197974999999977e+06
6.253400039672851562e+01 1.002095837500000023e+06
6.253419876098632812e+01 9.706558874999999534e+05
6.253440093994140625e+01 9.394544749999999767e+05
6.253459930419921875e+01 9.082785000000000000e+05
6.253480148315429688e+01 8.772230250000000233e+05
6.253499984741210938e+01 8.462542874999999767e+05
6.253519821166992188e+01 8.153069499999999534e+05
6.253540039062500000e+01 7.855314375000000000e+05
6.253559875488281250e+01 7.573189499999999534e+05
6.253580093383789062e+01 7.302850000000000000e+05
6.253599929809570312e+01 7.053047249999999767e+05
6.253620147705078125e+01 6.833271875000000000e+05
6.253639984130859375e+01 6.631211624999999767e+05
6.253659820556640625e+01 6.445904250000000466e+05
6.253680038452148438e+01 6.276298375000000233e+05
6.253699874877929688e+01 6.115994000000000233e+05
6.253720092773437500e+01 5.955265999999999767e+05
6.253739929199218750e+01 5.788116250000000000e+05
6.253760147094726562e+01 5.592108499999999767e+05
6.253779983520507812e+01 5.342870187500000466e+05
6.253799819946289062e+01 5.050229687500000000e+05
6.253820037841796875e+01 4.732127125000000233e+05
6.253839874267578125e+01 4.401337874999999767e+05
6.253860092163085938e+01 4.083618499999999767e+05
6.253879928588867188e+01 3.811830062499999767e+05
6.253900146484375000e+01 3.583695875000000233e+05
6.253919982910156250e+01 3.387309562499999884e+05
6.253939819335937500e+01 3.218082062499999884e+05
6.253960037231445312e+01 3.068817312500000116e+05
6.253979873657226562e+01 2.934803437500000000e+05
6.254000091552734375e+01 2.810947374999999884e+05
6.254019927978515625e+01 2.696194531250000000e+05
6.254040145874023438e+01 2.588342531249999884e+05
6.254059982299804688e+01 2.489309718749999884e+05
6.254079818725585938e+01 2.396844187500000116e+05
6.254100036621093750e+01 2.305640562499999942e+05
6.254119873046875000e+01 2.225493281250000000e+05
6.254140090942382812e+01 2.147776968749999942e+05
6.254159927368164062e+01 2.073018781249999884e+05
6.254180145263671875e+01 2.002358093750000116e+05
6.254199981689453125e+01 1.921600812499999884e+05
6.254219818115234375e+01 1.838825406249999942e+05
6.254240036010742188e+01 1.759817437499999942e+05
6.254259872436523438e+01 1.681746781250000058e+05
6.254280090332031250e+01 1.605186124999999884e+05
6.254299926757812500e+01 1.546303250000000116e+05
6.254320144653320312e+01 1.487754937499999942e+05
6.254339981079101562e+01 1.427323953125000116e+05
6.254359817504882812e+01 1.373048296874999942e+05
6.254380035400390625e+01 1.323262625000000116e+05
6.254399871826171875e+01 1.273316531249999971e+05
6.254420089721679688e+01 1.227482468749999971e+05
6.254439926147460938e+01 1.196203562499999971e+05
6.254460144042968750e+01 1.166949515625000058e+05
6.254479980468750000e+01 1.139413484374999971e+05
6.254499816894531250e+01 1.116847859374999971e+05
6.254520034790039062e+01 1.098577781249999971e+05
6.254539871215820312e+01 1.084444406250000029e+05
6.254560089111328125e+01 1.066571015625000000e+05
6.254579925537109375e+01 1.049329703124999942e+05
6.254600143432617188e+01 1.039466328125000000e+05
6.254619979858398438e+01 1.025834421874999971e+05
6.254639816284179688e+01 1.004563921874999942e+05
6.254660034179687500e+01 9.930233906250000291e+04
6.254679870605468750e+01 9.825056406249999418e+04
6.254700088500976562e+01 9.685602968750000582e+04
6.254719924926757812e+01 9.579305156249999709e+04
6.254740142822265625e+01 9.470303750000000582e+04
6.254759979248046875e+01 9.341925937499999418e+04
6.254779815673828125e+01 9.212141406250000000e+04
6.254800033569335938e+01 9.086416562499999418e+04
6.254819869995117188e+01 8.941400312500000291e+04
6.254840087890625000e+01 8.811240156250000291e+04
6.254859924316406250e+01 8.657712343750000582e+04
6.254880142211914062e+01 8.491093593750000582e+04
6.254899978637695312e+01 8.328587968749999709e+04
6.254919815063476562e+01 8.132305000000000291e+04
6.254940032958984375e+01 7.941317343749999418e+04
6.254959869384765625e+01 7.720120937500000582e+04
6.254980087280273438e+01 7.477842187500000000e+04
6.254999923706054688e+01 7.261918593750000582e+04
6.255020141601562500e+01 7.057209375000000000e+04
6.255039978027343750e+01 6.833967968750000000e+04
6.255059814453125000e+01 6.618814687500000582e+04
6.255080032348632812e+01 6.411814921874999709e+04
6.255099868774414062e+01 6.153412734374999854e+04
6.255120086669921875e+01 5.912537500000000000e+04
6.255139923095703125e+01 5.652781015625000146e+04
6.255160140991210938e+01 5.433048750000000291e+04
6.255179977416992188e+01 5.276212812500000291e+04
6.255199813842773438e+01 5.037188828125000146e+04
6.255220031738281250e+01 4.779367265624999709e+04
6.255239868164062500e+01 4.516480234375000146e+04
6.255260086059570312e+01 4.229160234374999709e+04
6.255279922485351562e+01 3.920956328124999709e+04
6.255300140380859375e+01 3.693031328124999709e+04
6.255319976806640625e+01 3.534928749999999854e+04
6.255339813232421875e+01 3.377283398437500000e+04
6.255360031127929688e+01 3.186241718749999927e+04
6.255379867553710938e+01 3.041560117187500146e+04
6.255400085449218750e+01 2.944973828125000000e+04
6.255419921875000000e+01 2.886157460937499854e+04
6.255440139770507812e+01 2.816852187499999854e+04
6.255459976196289062e+01 2.806352265624999927e+04
6.255479812622070312e+01 2.765780781249999927e+04
6.255500030517578125e+01 2.756911835937499927e+04
6.255519866943359375e+01 2.680812421874999927e+04
6.255540084838867188e+01 2.672061249999999927e+04
6.255559921264648438e+01 2.671204960937500073e+04
6.255580139160156250e+01 2.711273203125000146e+04
6.255599975585937500e+01 2.724222070312500000e+04
6.255619812011718750e+01 2.745059257812500073e+04
6.255640029907226562e+01 2.781225703124999927e+04
6.255659866333007812e+01 2.814786640624999927e+04
6.255680084228515625e+01 2.812404414062499927e+04
6.255699920654296875e+01 2.792427304687500146e+04
6.255720138549804688e+01 2.799719609375000073e+04
6.255739974975585938e+01 2.799583554687500146e+04
6.255759811401367188e+01 2.818757070312499854e+04
6.255780029296875000e+01 2.823311093750000146e+04
6.255799865722656250e+01 2.839253125000000000e+04
6.255820083618164062e+01 2.856816484375000073e+04
6.255839920043945312e+01 2.874685117187500146e+04
6.255860137939453125e+01 2.958963867187500000e+04
6.255879974365234375e+01 2.931239023437500146e+04
6.255899810791015625e+01 2.911125742187500146e+04
6.255920028686523438e+01 2.891145859375000146e+04
6.255939865112304688e+01 2.789439414062500146e+04
6.255960083007812500e+01 2.640887500000000000e+04
6.255979919433593750e+01 2.615114765624999927e+04
6.256000137329101562e+01 2.568184687499999927e+04
6.256019973754882812e+01 2.448997617187500146e+04
6.256039810180664062e+01 2.452501523437500146e+04
6.256060028076171875e+01 2.446178242187499927e+04
6.256079864501953125e+01 2.391899765625000146e+04
6.256100082397460938e+01 2.354979648437500146e+04
6.256119918823242188e+01 2.380624609375000000e+04
6.256140136718750000e+01 2.384537421874999927e+04
6.256159973144531250e+01 2.448743593749999854e+04
6.256179809570312500e+01 2.531045117187500000e+04
6.256200027465820312e+01 2.487515937499999927e+04
6.256219863891601562e+01 2.446741210937500000e+04
6.256240081787109375e+01 2.408573085937499854e+04
6.256259918212890625e+01 2.271979804687499927e+04
6.256280136108398438e+01 2.206832968750000146e+04
6.256299972534179688e+01 2.252498515625000073e+04
6.256320190429687500e+01 2.388016289062500073e+04
6.256340026855468750e+01 2.379539492187499854e+04
6.256359863281250000e+01 2.455977851562499927e+04
6.256380081176757812e+01 2.462086562499999854e+04
6.256399917602539062e+01 2.493913242187500146e+04
6.256420135498046875e+01 2.474086914062500000e+04
6.256439971923828125e+01 2.492306796875000146e+04
6.256460189819335938e+01 2.546009453125000073e+04
6.256480026245117188e+01 2.583824492187500073e+04
6.256499862670898438e+01 2.624295546874999854e+04
6.256520080566406250e+01 2.611202265624999927e+04
6.256539916992187500e+01 2.657496093750000000e+04
6.256560134887695312e+01 2.637792695312499927e+04
6.256579971313476562e+01 2.602642578125000000e+04
6.256600189208984375e+01 2.563211875000000146e+04
6.256620025634765625e+01 2.542094726562500000e+04
6.256639862060546875e+01 2.518468671874999927e+04
6.256660079956054688e+01 2.455769101562500146e+04
6.256679916381835938e+01 2.430846367187500073e+04
6.256700134277343750e+01 2.419700156250000146e+04
6.256719970703125000e+01 2.390349609375000000e+04
6.256740188598632812e+01 2.370119101562500146e+04
6.256760025024414062e+01 2.321248867187499854e+04
6.256779861450195312e+01 2.313620078125000146e+04
6.256800079345703125e+01 2.298813046875000146e+04
6.256819915771484375e+01 2.281787656250000146e+04
6.256840133666992188e+01 2.266912578125000073e+04
6.256859970092773438e+01 2.294330507812499854e+04
6.256880187988281250e+01 2.285339804687500146e+04
6.256900024414062500e+01 2.285875117187499927e+04
6.256919860839843750e+01 2.274012617187499927e+04
6.256940078735351562e+01 2.289023007812500146e+04
6.256959915161132812e+01 2.282393125000000146e+04
6.256980133056640625e+01 2.287728906250000000e+04
6.256999969482421875e+01 2.269474257812499854e+04
