# Time (s), Smoothed Ip (A)
6.252500152587890625e+01 1.692498725000000093e+06
6.252519989013671875e+01 1.692734000000000000e+06
6.252539825439453125e+01 1.693302550000000047e+06
6.252560043334960938e+01 1.693743774999999907e+06
6.252579879760742188e+01 1.694381600000000093e+06
6.252600097656250000e+01 1.694373824999999953e+06
6.252619934082031250e+01 1.694646875000000000e+06
6.252640151977539062e+01 1.694524475000000093e+06
6.252659988403320312e+01 1.694596475000000093e+06
6.252679824829101562e+01 1.693577725000000093e+06
6.252700042724609375e+01 1.693161274999999907e+06
6.252719879150390625e+01 1.692034350000000093e+06
6.252740097045898438e+01 1.690234399999999907e+06
6.252759933471679688e+01 1.688173774999999907e+06
6.252780151367187500e+01 1.685906550000000047e+06
6.252799987792968750e+01 1.683387875000000000e+06
6.252819824218750000e+01 1.680850574999999953e+06
6.252840042114257812e+01 1.678594000000000000e+06
6.252859878540039062e+01 1.676662100000000093e+06
6.252880096435546875e+01 1.678658399999999907e+06
6.252899932861328125e+01 1.686775774999999907e+06
6.252920150756835938e+01 1.704019774999999907e+06
6.252939987182617188e+01 1.754878625000000000e+06
6.252959823608398438e+01 1.807825649999999907e+06
6.252980041503906250e+01 1.846195750000000000e+06
6.252999877929687500e+01 1.865545975000000093e+06
6.253020095825195312e+01 1.862203425000000047e+06
6.253039932250976562e+01 1.814020600000000093e+06
6.253060150146484375e+01 1.752553000000000000e+06
6.253079986572265625e+01 1.692551574999999953e+06
6.253099822998046875e+01 1.636751774999999907e+06
6.253120040893554688e+01 1.585756199999999953e+06
6.253139877319335938e+01 1.537997199999999953e+06
6.253160095214843750e+01 1.493195274999999907e+06
6.253179931640625000e+01 1.449943300000000047e+06
6.253200149536132812e+01 1.407764000000000000e+06
6.253219985961914062e+01 1.367592375000000000e+06
6.253239822387695312e+01 1.328948649999999907e+06
6.253260040283203125e+01 1.291467500000000000e+06
6.253279876708984375e+01 1.255160574999999953e+06
6.253300094604492188e+01 1.220362875000000000e+06
6.253319931030273438e+01 1.185400975000000093e+06
6.253340148925781250e+01 1.150659399999999907e+06
6.253359985351562500e+01 1.116765800000000047e+06
6.253379821777343750e+01 1.083886375000000000e+06
6.253400039672851562e+01 1.051413850000000093e+06
6.253419876098632812e+01 1.020157875000000000e+06
6.253440093994140625e+01 9.891578750000000000e+05
6.253459930419921875e+01 9.584904499999999534e+05
6.253480148315429688e+01 9.268621374999999534e+05
6.253499984741210938e+01 8.951776125000000466e+05
6.253519821166992188e+01 8.627499124999999767e+05
6.253540039062500000e+01 8.303868750000000000e+05
6.253559875488281250e+01 7.975096999999999534e+05
6.253580093383789062e+01 7.650675999999999767e+05
6.253599929809570312e+01 7.323882624999999534e+05
6.253620147705078125e+01 7.002335625000000000e+05
6.253639984130859375e+01 6.685959250000000466e+05
6.253659820556640625e+01 6.375299875000000466e+05
6.253680038452148438e+01 6.078455500000000466e+05
6.253699874877929688e+01 5.796487500000000000e+05
6.253720092773437500e+01 5.533215749999999534e+05
6.253739929199218750e+01 5.280685250000000233e+05
6.253760147094726562e+01 5.042860125000000116e+05
6.253779983520507812e+01 4.822103062500000233e+05
6.253799819946289062e+01 4.611159187500000116e+05
6.253820037841796875e+01 4.406954062500000000e+05
6.253839874267578125e+01 4.215641437499999884e+05
6.253860092163085938e+01 4.033519500000000116e+05
6.253879928588867188e+01 3.854986749999999884e+05
6.253900146484375000e+01 3.684570937500000000e+05
6.253919982910156250e+01 3.527433125000000000e+05
6.253939819335937500e+01 3.375021312499999767e+05
6.253960037231445312e+01 3.228205187499999884e+05
6.253979873657226562e+01 3.085628875000000116e+05
6.254000091552734375e+01 2.945297374999999884e+05
6.254019927978515625e+01 2.807712687499999884e+05
6.254040145874023438e+01 2.674942937500000116e+05
6.254059982299804688e+01 2.548463093750000116e+05
6.254079818725585938e+01 2.426204156249999942e+05
6.254100036621093750e+01 2.315085375000000058e+05
6.254119873046875000e+01 2.203132625000000116e+05
6.254140090942382812e+01 2.099451156250000058e+05
6.254159927368164062e+01 1.998448374999999942e+05
6.254180145263671875e+01 1.905889062500000000e+05
6.254199981689453125e+01 1.814570218750000058e+05
6.254219818115234375e+01 1.728711906249999884e+05
6.254240036010742188e+01 1.650870000000000000e+05
6.254259872436523438e+01 1.579368624999999884e+05
6.254280090332031250e+01 1.516117281249999942e+05
6.254299926757812500e+01 1.446417109375000000e+05
6.254320144653320312e+01 1.384065734374999884e+05
6.254339981079101562e+01 1.323498015625000116e+05
6.254359817504882812e+01 1.263082875000000058e+05
6.254380035400390625e+01 1.208758109375000058e+05
6.254399871826171875e+01 1.166273171874999971e+05
6.254420089721679688e+01 1.134066734374999942e+05
6.254439926147460938e+01 1.099268703125000029e+05
6.254460144042968750e+01 1.074863125000000000e+05
6.254479980468750000e+01 1.052068062499999942e+05
6.254499816894531250e+01 1.035799046875000058e+05
6.254520034790039062e+01 1.018280249999999942e+05
6.254539871215820312e+01 1.011499624999999942e+05
6.254560089111328125e+01 1.002537937499999971e+05
6.254579925537109375e+01 9.922055468750000000e+04
6.254600143432617188e+01 9.842966093749999709e+04
6.254619979858398438e+01 9.757502968750000582e+04
6.254639816284179688e+01 9.706212031250000291e+04
6.254660034179687500e+01 9.686285781250000582e+04
6.254679870605468750e+01 9.616419843750000291e+04
6.254700088500976562e+01 9.598559687500000291e+04
6.254719924926757812e+01 9.537142656249999709e+04
6.254740142822265625e+01 9.411500468749999709e+04
6.254759979248046875e+01 9.250179062499999418e+04
6.254779815673828125e+01 9.106621875000000000e+04
6.254800033569335938e+01 8.969303750000000582e+04
6.254819869995117188e+01 8.817430312500000582e+04
6.254840087890625000e+01 8.616332031250000000e+04
6.254859924316406250e+01 8.437285000000000582e+04
6.254880142211914062e+01 8.233758125000000291e+04
6.254899978637695312e+01 7.983874374999999418e+04
6.254919815063476562e+01 7.749605624999999418e+04
6.254940032958984375e+01 7.496160937500000000e+04
6.254959869384765625e+01 7.260540781249999418e+04
6.254980087280273438e+01 7.028558984375000000e+04
6.254999923706054688e+01 6.767746718750000582e+04
6.255020141601562500e+01 6.507619921875000000e+04
6.255039978027343750e+01 6.246870546874999854e+04
6.255059814453125000e+01 5.995261562499999854e+04
6.255080032348632812e+01 5.764428906250000000e+04
6.255099868774414062e+01 5.524813359374999709e+04
6.255120086669921875e+01 5.274302968749999854e+04
6.255139923095703125e+01 5.125811640625000291e+04
6.255160140991210938e+01 4.908365625000000000e+04
6.255179977416992188e+01 4.696469921875000000e+04
6.255199813842773438e+01 4.486578828125000291e+04
6.255220031738281250e+01 4.334382421875000000e+04
6.255239868164062500e+01 4.121389218750000146e+04
6.255260086059570312e+01 4.034649140625000291e+04
6.255279922485351562e+01 3.969197656250000000e+04
6.255300140380859375e+01 3.942615078124999854e+04
6.255319976806640625e+01 3.805246015625000291e+04
6.255339813232421875e+01 3.714977656250000291e+04
6.255360031127929688e+01 3.546809179687500000e+04
6.255379867553710938e+01 3.403282656249999854e+04
6.255400085449218750e+01 3.240331562499999927e+04
6.255419921875000000e+01 3.171934687499999927e+04
6.255440139770507812e+01 3.103539804687500146e+04
6.255459976196289062e+01 3.037202109375000146e+04
6.255479812622070312e+01 2.960417890624999927e+04
6.255500030517578125e+01 2.926467031249999854e+04
6.255519866943359375e+01 2.896689843750000000e+04
6.255540084838867188e+01 2.899301953125000000e+04
6.255559921264648438e+01 2.862342773437500000e+04
6.255580139160156250e+01 2.831680742187500073e+04
6.255599975585937500e+01 2.804546757812500073e+04
6.255619812011718750e+01 2.793249453124999854e+04
6.255640029907226562e+01 2.742478789062500073e+04
6.255659866333007812e+01 2.696210859374999927e+04
6.255680084228515625e+01 2.693093789062499854e+04
6.255699920654296875e+01 2.695227343750000000e+04
6.255720138549804688e+01 2.697357031250000000e+04
6.255739974975585938e+01 2.699684960937500000e+04
6.255759811401367188e+01 2.736300781250000000e+04
6.255780029296875000e+01 2.735623984375000146e+04
6.255799865722656250e+01 2.720880742187500073e+04
6.255820083618164062e+01 2.684734570312500000e+04
6.255839920043945312e+01 2.690359453125000073e+04
6.255860137939453125e+01 2.729016992187500000e+04
6.255879974365234375e+01 2.753853710937500000e+04
6.255899810791015625e+01 2.777035468749999927e+04
6.255920028686523438e+01 2.823947734375000073e+04
6.255939865112304688e+01 2.812214179687499927e+04
6.255960083007812500e+01 2.839719414062500073e+04
6.255979919433593750e+01 2.785447499999999854e+04
6.256000137329101562e+01 2.747288671875000000e+04
6.256019973754882812e+01 2.727356328125000073e+04
6.256039810180664062e+01 2.677993554687500000e+04
6.256060028076171875e+01 2.631982968750000146e+04
6.256079864501953125e+01 2.616434804687499854e+04
6.256100082397460938e+01 2.606891210937500000e+04
6.256119918823242188e+01 2.557200859375000073e+04
6.256140136718750000e+01 2.552879687500000000e+04
6.256159973144531250e+01 2.496235820312500073e+04
6.256179809570312500e+01 2.487101562500000000e+04
6.256200027465820312e+01 2.454204375000000073e+04
6.256219863891601562e+01 2.452355625000000146e+04
6.256240081787109375e+01 2.476503906250000000e+04
6.256259918212890625e+01 2.537314492187499854e+04
6.256280136108398438e+01 2.625538242187500146e+04
6.256299972534179688e+01 2.574566835937499854e+04
6.256320190429687500e+01 2.537644531250000000e+04
6.256340026855468750e+01 2.488351601562499854e+04
6.256359863281250000e+01 2.371761445312499927e+04
6.256380081176757812e+01 2.234570507812500000e+04
6.256399917602539062e+01 2.201693125000000146e+04
6.256420135498046875e+01 2.238712070312500146e+04
6.256439971923828125e+01 2.232036562499999854e+04
6.256460189819335938e+01 2.273161367187499854e+04
6.256480026245117188e+01 2.238392109374999927e+04
6.256499862670898438e+01 2.302615117187500073e+04
6.256520080566406250e+01 2.295719960937499854e+04
6.256539916992187500e+01 2.301010976562499854e+04
6.256560134887695312e+01 2.330668671874999927e+04
6.256579971313476562e+01 2.365993398437499854e+04
6.256600189208984375e+01 2.420348671874999854e+04
6.256620025634765625e+01 2.429460273437499927e+04
6.256639862060546875e+01 2.428973828125000000e+04
6.256660079956054688e+01 2.462230546875000073e+04
6.256679916381835938e+01 2.484985820312500073e+04
6.256700134277343750e+01 2.445811367187499854e+04
6.256719970703125000e+01 2.417236757812499854e+04
6.256740188598632812e+01 2.423304492187500000e+04
6.256760025024414062e+01 2.318613906249999854e+04
6.256779861450195312e+01 2.275688242187500146e+04
6.256800079345703125e+01 2.260813906249999854e+04
6.256819915771484375e+01 2.250686992187500073e+04
6.256840133666992188e+01 2.236162968750000073e+04
6.256859970092773438e+01 2.243045390625000073e+04
6.256880187988281250e+01 2.274799296875000073e+04
6.256900024414062500e+01 2.243696757812500073e+04
6.256919860839843750e+01 2.216388554687500073e+04
6.256940078735351562e+01 2.206153984375000073e+04
6.256959915161132812e+01 2.216227812500000073e+04
6.256980133056640625e+01 2.220312851562500146e+04
6.256999969482421875e+01 2.244155742187500073e+04
